ID,Count
31417,1
31418,0.988583942
31419,0.990603238
31420,0.992619618
31421,0.994633083
31422,0.996643634
31423,0.998651274
31424,1.000656004
31425,1.002657825
31426,1.004656738
31427,1.006652747
31428,1.008645851
31429,1.010636054
31430,1.012623355
31431,1.014607758
31432,1.016589263
31433,1.018567872
31434,1.020543587
31435,1.022516409
31436,1.02448634
31437,1.026453381
31438,1.028417534
31439,1.030378801
31440,1.032337183
31441,1.034292681
31442,1.036245298
31443,1.038195035
31444,1.040141893
31445,1.042085874
31446,1.04402698
31447,1.045965213
31448,1.047900573
31449,1.049833062
31450,1.051762682
31451,1.053689435
31452,1.055613322
31453,1.057534345
31454,1.059452505
31455,1.061367804
31456,1.063280244
31457,1.065189825
31458,1.067096551
31459,1.069000421
31460,1.070901438
31461,1.072799604
31462,1.074694919
31463,1.076587387
31464,1.078477007
31465,1.080363782
31466,1.082247713
31467,1.084128802
31468,1.086007051
31469,1.087882461
31470,1.089755033
31471,1.09162477
31472,1.093491672
31473,1.095355742
31474,1.097216981
31475,1.09907539
31476,1.100930971
31477,1.102783727
31478,1.104633657
31479,1.106480764
31480,1.10832505
31481,1.110166516
31482,1.112005163
31483,1.113840994
31484,1.11567401
31485,1.117504212
31486,1.119331602
31487,1.121156181
31488,1.122977952
31489,1.124796915
31490,1.126613072
31491,1.128426426
31492,1.130236977
31493,1.132044727
31494,1
31495,1.13565183
31496,1.137451187
31497,1.139247749
31498,1.141041518
31499,1.142832495
31500,1.144620683
31501,1.146406082
31502,1.148188695
31503,1.149968523
31504,1.151745567
31505,1.153519829
31506,1.15529131
31507,1.157060013
31508,1.158825939
31509,1.160589089
31510,1.162349465
31511,1.164107069
31512,1.165861901
31513,1.167613965
31514,1.16936326
31515,1.17110979
31516,1.172853555
31517,1.174594557
31518,1.176332798
31519,1.178068279
31520,1.179801002
31521,1.181530968
31522,1.183258179
31523,1.184982636
31524,1.186704342
31525,1.188423298
31526,1.190139504
31527,1.191852964
31528,1.193563678
31529,1.195271648
31530,1.196976876
31531,1.198679363
31532,1.200379111
31533,1.202076121
31534,1.203770395
31535,1.205461934
31536,1.207150741
31537,1.208836817
31538,1.210520162
31539,1.21220078
31540,1.213878671
31541,1.215553837
31542,1.21722628
31543,1.218896001
31544,1.220563001
31545,1.222227283
31546,1.223888848
31547,1.225547698
31548,1.227203834
31549,1.228857257
31550,1.23050797
31551,1.232155973
31552,1.233801269
31553,1.235443859
31554,1.237083745
31555,1.238720928
31556,1.24035541
31557,1.241987192
31558,1.243616276
31559,1.245242663
31560,1.246866356
31561,1.248487355
31562,1.250105663
31563,1.25172128
31564,1.253334209
31565,1.254944451
31566,1.256552008
31567,1.25815688
31568,1.259759071
31569,1.261358581
31570,1.262955412
31571,1
31572,1.266141043
31573,1.267729846
31574,1.269315976
31575,1.270899436
31576,1.272480226
31577,1.274058347
31578,1.275633803
31579,1.277206594
31580,1.278776721
31581,1.280344187
31582,1.281908993
31583,1.28347114
31584,1.28503063
31585,1.286587465
31586,1.288141647
31587,1.289693176
31588,1.291242055
31589,1.292788284
31590,1.294331867
31591,1.295872803
31592,1.297411095
31593,1.298946745
31594,1.300479754
31595,1.302010123
31596,1.303537854
31597,1.305062949
31598,1.306585409
31599,1.308105236
31600,1.309622431
31601,1.311136997
31602,1.312648934
31603,1.314158244
31604,1.315664929
31605,1.317168991
31606,1.31867043
31607,1.320169249
31608,1.321665449
31609,1.323159032
31610,1.324649999
31611,1.326138352
31612,1.327624092
31613,1.329107221
31614,1.330587741
31615,1.332065653
31616,1.333540959
31617,1.33501366
31618,1.336483759
31619,1.337951255
31620,1.339416152
31621,1.340878451
31622,1.342338152
31623,1.343795259
31624,1.345249772
31625,1.346701693
31626,1.348151024
31627,1.349597765
31628,1.35104192
31629,1.352483489
31630,1.353922474
31631,1.355358876
31632,1.356792698
31633,1.35822394
31634,1.359652604
31635,1.361078693
31636,1.362502207
31637,1.363923147
31638,1.365341517
31639,1.366757316
31640,1.368170548
31641,1.369581212
31642,1.370989312
31643,1.372394848
31644,1.373797822
31645,1.375198236
31646,1.376596091
31647,1.377991389
31648,1
31649,1.38077432
31650,1.382161956
31651,1.383547041
31652,1.384929577
31653,1.386309566
31654,1.387687008
31655,1.389061906
31656,1.390434261
31657,1.391804074
31658,1.393171348
31659,1.394536084
31660,1.395898283
31661,1.397257947
31662,1.398615078
31663,1.399969677
31664,1.401321745
31665,1.402671285
31666,1.404018298
31667,1.405362786
31668,1.406704749
31669,1.40804419
31670,1.409381111
31671,1.410715512
31672,1.412047396
31673,1.413376764
31674,1.414703617
31675,1.416027957
31676,1.417349787
31677,1.418669106
31678,1.419985918
31679,1.421300223
31680,1.422612023
31681,1.42392132
31682,1.425228115
31683,1.42653241
31684,1.427834206
31685,1.429133505
31686,1.430430309
31687,1.431724619
31688,1.433016437
31689,1.434305764
31690,1.435592602
31691,1.436876953
31692,1.438158818
31693,1.439438198
31694,1.440715096
31695,1.441989512
31696,1.443261449
31697,1.444530908
31698,1.44579789
31699,1.447062398
31700,1.448324432
31701,1.449583995
31702,1.450841088
31703,1.452095712
31704,1.453347869
31705,1.454597561
31706,1.455844789
31707,1.457089555
31708,1.458331861
31709,1.459571707
31710,1.460809096
31711,1.462044029
31712,1.463276508
31713,1.464506534
31714,1.465734109
31715,1.466959235
31716,1.468181913
31717,1.469402144
31718,1.470619931
31719,1.471835274
31720,1.473048176
31721,1.474258638
31722,1.475466662
31723,1.476672248
31724,1.4778754
31725,1.479076117
31726,1.480274403
31727,1.481470258
31728,1.482663684
31729,1.483854683
31730,1.485043256
31731,1.486229405
31732,1.487413132
31733,1.488594437
31734,1.489773323
31735,1.490949791
31736,1.492123843
31737,1.49329548
31738,1.494464704
31739,1.495631517
31740,1.496795919
31741,1.497957914
31742,1.499117501
31743,1.500274684
31744,1.501429462
31745,1.502581839
31746,1.503731815
31747,1.504879393
31748,1.506024573
31749,1.507167358
31750,1.508307748
31751,1.509445746
31752,1.510581353
31753,1.511714571
31754,2
31755,1.513973845
31756,1.515099904
31757,1.51622358
31758,1.517344875
31759,1.51846379
31760,1.519580326
31761,1.520694486
31762,1.521806271
31763,1.522915683
31764,1.524022722
31765,1.525127391
31766,1.526229692
31767,1.527329625
31768,1.528427192
31769,1.529522396
31770,1.530615237
31771,1.531705717
31772,1.532793838
31773,1.533879601
31774,1.534963009
31775,1.536044061
31776,1.537122761
31777,1.53819911
31778,1.539273108
31779,1.540344759
31780,1.541414063
31781,1.542481021
31782,1.543545637
31783,1.54460791
31784,1.545667844
31785,1.546725438
31786,1.547780696
31787,1.548833618
31788,1.549884206
31789,1.550932462
31790,1.551978387
31791,1.553021983
31792,1.554063251
31793,1.555102193
31794,1.556138811
31795,1.557173105
31796,1.558205079
31797,1.559234733
31798,1.560262069
31799,1.561287088
31800,1.562309792
31801,1.563330183
31802,1.564348263
31803,1.565364032
31804,1.566377492
31805,1.567388646
31806,1.568397494
31807,1.569404038
31808,1.57040828
31809,1.571410221
31810,1.572409863
31811,1.573407207
31812,1.574402256
31813,1.57539501
31814,1.576385472
31815,1.577373642
31816,1.578359523
31817,1.579343115
31818,1.580324422
31819,1.581303443
31820,1.582280181
31821,1.583254637
31822,1.584226814
31823,1.585196711
31824,1.586164332
31825,1.587129678
31826,1.588092749
31827,1.589053549
31828,1.590012078
31829,1.590968338
31830,1.59192233
31831,2
31832,1.593823519
31833,1.594770718
31834,1.595715657
31835,1.596658336
31836,1.597598757
31837,1.598536921
31838,1.599472831
31839,1.600406488
31840,1.601337893
31841,1.602267048
31842,1.603193955
31843,1.604118614
31844,1.605041029
31845,1.605961199
31846,1.606879128
31847,1.607794816
31848,1.608708265
31849,1.609619477
31850,1.610528453
31851,1.611435195
31852,1.612339704
31853,1.613241982
31854,1.614142031
31855,1.615039852
31856,1.615935446
31857,1.616828816
31858,1.617719963
31859,1.618608888
31860,1.619495593
31861,1.62038008
31862,1.62126235
31863,1.622142405
31864,1.623020246
31865,1.623895876
31866,1.624769294
31867,1.625640504
31868,1.626509507
31869,1.627376304
31870,1.628240897
31871,1.629103287
31872,1.629963476
31873,1.630821466
31874,1.631677259
31875,1.632530855
31876,1.633382256
31877,1.634231464
31878,1.635078481
31879,1.635923308
31880,1.636765947
31881,1.637606399
31882,1.638444666
31883,1.639280749
31884,1.64011465
31885,1.640946371
31886,1.641775914
31887,1.642603279
31888,1.643428468
31889,1.644251483
31890,1.645072326
31891,1.645890998
31892,1.646707501
31893,1.647521836
31894,1.648334005
31895,1.649144009
31896,1.649951851
31897,1.650757531
31898,1.651561051
31899,1.652362413
31900,1.653161618
31901,1.653958669
31902,1.654753566
31903,1.655546311
31904,1.656336905
31905,1.657125351
31906,1.65791165
31907,1.658695804
31908,2
31909,1.66025768
31910,1.661035406
31911,1.661810993
31912,1.662584443
31913,1.663355756
31914,1.664124935
31915,1.664891981
31916,1.665656895
31917,1.66641968
31918,1.667180337
31919,1.667938868
31920,1.668695273
31921,1.669449555
31922,1.670201715
31923,1.670951755
31924,1.671699676
31925,1.67244548
31926,1.673189169
31927,1.673930744
31928,1.674670207
31929,1.675407559
31930,1.676142801
31931,1.676875937
31932,1.677606966
31933,1.678335891
31934,1.679062713
31935,1.679787434
31936,1.680510055
31937,1.681230578
31938,1.681949005
31939,1.682665337
31940,1.683379575
31941,1.684091722
31942,1.684801779
31943,1.685509747
31944,1.686215628
31945,1.686919424
31946,1.687621136
31947,1.688320765
31948,1.689018314
31949,1.689713784
31950,1.690407177
31951,1.691098494
31952,1.691787736
31953,1.692474906
31954,1.693160004
31955,1.693843033
31956,1.694523994
31957,1.695202889
31958,1.695879718
31959,1.696554485
31960,1.69722719
31961,1.697897835
31962,1.698566421
31963,1.699232951
31964,1.699897425
31965,1.700559845
31966,1.701220214
31967,1.701878532
31968,1.7025348
31969,1.703189022
31970,1.703841197
31971,1.704491329
31972,1.705139418
31973,1.705785465
31974,1.706429473
31975,1.707071444
31976,1.707711378
31977,1.708349277
31978,1.708985143
31979,1.709618978
31980,1.710250782
31981,1.710880559
31982,1.711508308
31983,1.712134032
31984,1.712757733
31985,2
31986,1.713999069
31987,1.714616708
31988,1.71523233
31989,1.715845936
31990,1.716457528
31991,1.717067107
31992,1.717674675
31993,1.718280234
31994,1.718883786
31995,1.71948533
31996,1.720084871
31997,1.720682408
31998,1.721277944
31999,1.721871479
32000,1.722463017
32001,1.723052558
32002,1.723640103
32003,1.724225655
32004,1.724809215
32005,1.725390785
32006,1.725970366
32007,1.72654796
32008,1.727123568
32009,1.727697192
32010,1.728268833
32011,1.728838493
32012,1.729406175
32013,1.729971878
32014,1.730535605
32015,1.731097358
32016,1.731657138
32017,1.732214946
32018,1.732770785
32019,1.733324655
32020,1.733876559
32021,1.734426497
32022,1.734974472
32023,1.735520486
32024,1.736064539
32025,1.736606633
32026,1.73714677
32027,1.737684951
32028,1.738221178
32029,1.738755453
32030,1.739287778
32031,1.739818153
32032,1.74034658
32033,1.740873061
32034,1.741397598
32035,1.741920192
32036,1.742440844
32037,1.742959557
32038,1.743476332
32039,1.74399117
32040,1.744504073
32041,1.745015042
32042,1.74552408
32043,1.746031188
32044,1.746536367
32045,1.747039618
32046,1.747540945
32047,1.748040347
32048,1.748537827
32049,1.749033387
32050,1.749527027
32051,1.750018749
32052,1.750508556
32053,1.750996448
32054,1.751482428
32055,1.751966496
32056,1.752448654
32057,1.752928905
32058,1.753407249
32059,1.753883688
32060,1.754358223
32061,1.754830857
32062,1.755301591
32063,1.755770426
32064,1.756237364
32065,1.756702407
32066,1.757165556
32067,1.757626813
32068,1.758086179
32069,1.758543656
32070,1.758999245
32071,1.759452949
32072,1.759904768
32073,1.760354705
32074,1.76080276
32075,1.761248936
32076,1.761693233
32077,1.762135655
32078,1.762576201
32079,1.763014874
32080,1.763451676
32081,1.763886607
32082,1.76431967
32083,1.764750866
32084,1.765180197
32085,1.765607664
32086,1.766033269
32087,1.766457013
32088,1.766878898
32089,1.767298926
32090,1.767717098
32091,1.768133416
32092,1.768547881
32093,1.768960495
32094,1.769371259
32095,1.769780176
32096,1.770187246
32097,1.770592471
32098,1.770995854
32099,1.771397394
32100,1.771797095
32101,1.772194957
32102,1.772590983
32103,1.772985173
32104,1.773377529
32105,1.773768054
32106,1.774156748
32107,1.774543613
32108,1.77492865
32109,1.775311862
32110,1.77569325
32111,1.776072815
32112,1.776450559
32113,1.776826484
32114,1.77720059
32115,1.777572881
32116,1.777943357
32117,1.77831202
32118,1.778678871
32119,1.779043912
32120,1.779407145
32121,1.779768572
32122,1.780128193
32123,1.78048601
32124,1.780842026
32125,1.781196241
32126,1.781548657
32127,1.781899276
32128,1.782248099
32129,1.782595129
32130,1.782940365
32131,1.783283811
32132,1.783625467
32133,1.783965336
32134,1.784303419
32135,1.784639716
32136,1.784974231
32137,1.785306965
32138,1.785637918
32139,1.785967094
32140,1.786294492
32141,1.786620116
32142,1.786943966
32143,1.787266044
32144,1.787586352
32145,1.787904891
32146,1.788221662
32147,1.788536669
32148,1.788849911
32149,1.789161391
32150,1.78947111
32151,1.789779069
32152,1.790085271
32153,1.790389717
32154,1.790692408
32155,1.790993347
32156,1.791292534
32157,1.791589971
32158,1.79188566
32159,1.792179603
32160,1.7924718
32161,1.792762254
32162,1.793050966
32163,1.793337938
32164,1.793623172
32165,1.793906668
32166,1.794188428
32167,1.794468455
32168,1.794746749
32169,1.795023313
32170,1.795298147
32171,1.795571254
32172,1.795842635
32173,1.796112291
32174,1.796380225
32175,1.796646437
32176,1.796910929
32177,1.797173704
32178,1.797434762
32179,1.797694105
32180,1.797951734
32181,1.798207652
32182,1.79846186
32183,1.798714359
32184,1.798965151
32185,1.799214237
32186,1.79946162
32187,1.7997073
32188,1.79995128
32189,1.800193561
32190,1.800434144
32191,1.800673031
32192,1.800910224
32193,1.801145724
32194,1.801379532
32195,1.801611652
32196,1.801842083
32197,1.802070828
32198,1.802297888
32199,1.802523264
32200,1.802746959
32201,1.802968974
32202,1.80318931
32203,1.803407969
32204,1.803624953
32205,1.803840264
32206,1.804053902
32207,1.804265869
32208,1.804476167
32209,1.804684798
32210,1.804891763
32211,1.805097064
32212,1.805300702
32213,1.805502679
32214,1.805702997
32215,1.805901656
32216,1.806098659
32217,1.806294007
32218,1.806487703
32219,1.806679746
32220,1.80687014
32221,1.807058885
32222,1.807245983
32223,1.807431436
32224,1.807615245
32225,1.807797412
32226,1.807977939
32227,1.808156826
32228,1.808334076
32229,1.808509691
32230,1.808683671
32231,1.808856019
32232,1.809026735
32233,1.809195822
32234,1.809363282
32235,1.809529115
32236,1.809693323
32237,1.809855908
32238,1.810016872
32239,1.810176215
32240,1.810333941
32241,1.810490049
32242,1.810644543
32243,1.810797422
32244,1.81094869
32245,1.811098347
32246,1.811246395
32247,1.811392837
32248,1.811537672
32249,1.811680903
32250,1.811822532
32251,1.811962559
32252,1.812100988
32253,1.812237818
32254,1.812373053
32255,1.812506693
32256,1.812638739
32257,1.812769194
32258,1.81289806
32259,1.813025337
32260,1.813151027
32261,1.813275133
32262,1.813397654
32263,1.813518594
32264,1.813637953
32265,1.813755734
32266,1.813871937
32267,1.813986565
32268,1.814099619
32269,1.8142111
32270,1.81432101
32271,1.814429351
32272,1.814536125
32273,1.814641332
32274,1.814744975
32275,1.814847054
32276,1.814947573
32277,1.815046531
32278,1.815143932
32279,1.815239775
32280,1.815334064
32281,1.815426799
32282,1.815517983
32283,1.815607616
32284,1.8156957
32285,1.815782237
32286,1.815867229
32287,1.815950677
32288,1.816032582
32289,1.816112946
32290,1.816191772
32291,1.816269059
32292,1.816344811
32293,1.816419028
32294,1.816491712
32295,1.816562865
32296,1.816632489
32297,1.816700584
32298,1.816767152
32299,1.816832196
32300,1.816895716
32301,1.816957714
32302,1.817018193
32303,1.817077152
32304,1.817134595
32305,1.817190522
32306,1.817244935
32307,1.817297836
32308,1.817349226
32309,1.817399107
32310,1.81744748
32311,1.817494348
32312,1.817539711
32313,1.817583571
32314,1.81762593
32315,1.81766679
32316,1.817706151
32317,1.817744016
32318,1.817780386
32319,1.817815263
32320,1.817848648
32321,1.817880543
32322,1.817910949
32323,1.817939869
32324,1.817967302
32325,1.817993253
32326,1.818017721
32327,1.818040708
32328,1.818062216
32329,1.818082247
32330,1.818100802
32331,1.818117882
32332,1.81813349
32333,1.818147627
32334,1.818160294
32335,1.818171493
32336,1.818181226
32337,1.818189494
32338,1.818196299
32339,1.818201642
32340,1.818205525
32341,1.818207949
32342,1.818208917
32343,1.818208429
32344,1.818206488
32345,1.818203094
32346,1.81819825
32347,1.818191957
32348,1.818184217
32349,1.818175031
32350,1.8181644
32351,1.818152327
32352,1.818138813
32353,1.818123859
32354,1.818107468
32355,1.81808964
32356,1.818070377
32357,1.818049681
32358,1.818027554
32359,1.818003997
32360,1.817979011
32361,1.817952599
32362,1.817924761
32363,1.8178955
32364,1.817864816
32365,1.817832712
32366,1.817799189
32367,1.817764249
32368,1.817727893
32369,1.817690123
32370,1.817650941
32371,1.817610347
32372,1.817568344
32373,1.817524934
32374,1.817480117
32375,1.817433895
32376,1.81738627
32377,1.817337244
32378,1.817286818
32379,1.817234993
32380,1.817181772
32381,1.817127156
32382,1.817071146
32383,1.817013744
32384,1.816954952
32385,1.816894771
32386,1.816833202
32387,1.816770249
32388,1.81670591
32389,1.81664019
32390,1.816573088
32391,1.816504608
32392,1.816434749
32393,1.816363515
32394,1.816290905
32395,1.816216923
32396,1.81614157
32397,1.816064846
32398,1.815986754
32399,1.815907296
32400,1.815826473
32401,1.815744286
32402,1.815660737
32403,1.815575828
32404,1.81548956
32405,1.815401935
32406,1.815312954
32407,1.81522262
32408,1.815130933
32409,1.815037895
32410,1.814943508
32411,1.814847773
32412,1.814750692
32413,1.814652267
32414,1.814552499
32415,1.814451389
32416,1.81434894
32417,1.814245153
32418,1.814140029
32419,1.81403357
32420,1.813925777
32421,1.813816653
32422,1.813706199
32423,1.813594416
32424,1.813481305
32425,1.81336687
32426,1.81325111
32427,1.813134028
32428,1.813015625
32429,1.812895903
32430,1.812774864
32431,1.812652509
32432,1.812528839
32433,1.812403856
32434,1.812277562
32435,1.812149959
32436,1.812021047
32437,1.811890829
32438,1.811759306
32439,1.811626479
32440,1.811492351
32441,1.811356923
32442,1.811220196
32443,1.811082172
32444,1.810942853
32445,1.81080224
32446,1.810660334
32447,1.810517138
32448,1.810372653
32449,1.81022688
32450,1.810079822
32451,1.809931479
32452,1.809781853
32453,1.809630946
32454,1.80947876
32455,1.809325296
32456,1.809170555
32457,1.809014539
32458,1.80885725
32459,1.80869869
32460,1.808538859
32461,1.80837776
32462,1.808215394
32463,1.808051762
32464,1.807886867
32465,1.80772071
32466,1.807553292
32467,1.807384615
32468,1.80721468
32469,1.80704349
32470,1.806871046
32471,1.806697349
32472,1.8065224
32473,1.806346203
32474,1.806168757
32475,1.805990065
32476,1.805810128
32477,1.805628948
32478,1.805446527
